scan_date,final_score,technical_score,sector_adjusted_fundamental_score,relative_strength_score,risk_penalty
2023-09-05,36.29,72.0,27.0,70.0,16.0
2023-09-06,44.35,72.0,27.0,100.0,16.0
2023-09-07,42.9,67.0,27.0,100.0,16.0
2023-09-08,36.41,47.0,27.0,95.0,16.0
2023-09-11,29.96,47.0,27.0,80.0,19.0
2023-09-12,21.57,50.0,27.0,55.0,21.0
2023-09-13,36.31,60.0,27.0,95.0,19.0
2023-09-14,30.75,50.0,27.0,80.0,19.0
2023-09-15,43.42,70.0,27.0,100.0,16.0
2023-09-18,33.9,50.0,27.0,95.0,19.0
2023-09-20,30.21,50.0,27.0,80.0,19.0
2023-09-21,29.93,50.0,27.0,80.0,19.0
2023-09-22,29.93,50.0,27.0,80.0,19.0
2023-09-25,36.72,60.0,27.0,95.0,19.0
2023-09-26,34.11,50.0,27.0,95.0,19.0
2023-09-27,34.18,50.0,27.0,95.0,19.0
2023-09-28,34.1,50.0,27.0,95.0,19.0
2023-09-29,28.4,42.0,27.0,80.0,19.0
2023-10-03,35.25,55.0,27.0,95.0,19.0
2023-10-04,34.81,55.0,27.0,95.0,19.0
2023-10-05,16.62,42.0,27.0,35.0,19.0
2023-10-06,21.07,60.0,27.0,35.0,19.0
2023-10-09,15.83,42.0,27.0,35.0,19.0
2023-10-10,19.21,42.0,27.0,35.0,16.0
2023-10-11,32.57,85.0,27.0,45.0,16.0
2023-10-12,36.11,70.0,27.0,73.0,16.0
2023-10-13,24.09,50.0,27.0,45.0,16.0
2023-10-16,26.6,60.0,27.0,45.0,16.0
2023-10-17,24.29,50.0,27.0,45.0,16.0
2023-10-18,21.81,50.0,27.0,35.0,16.0
2023-10-19,19.42,42.0,27.0,35.0,16.0
2023-10-20,17.56,47.0,27.0,35.0,19.0
2023-10-23,8.16,23.0,27.0,35.0,21.0
2023-10-25,18.1,43.0,27.0,35.0,16.0
2023-10-26,14.4,28.0,27.0,35.0,16.0
2023-10-27,18.62,43.0,27.0,35.0,16.0
2023-10-30,17.41,38.0,27.0,35.0,16.0
2023-10-31,11.8,28.0,27.0,35.0,19.0
2023-11-01,16.03,33.0,27.0,35.0,16.0
2023-11-02,18.97,43.0,27.0,35.0,16.0
2023-11-03,16.34,33.0,27.0,35.0,16.0
2023-11-06,23.6,60.0,27.0,35.0,16.0
2023-11-07,15.5,27.0,27.0,35.0,16.0
2023-11-08,33.21,70.0,27.0,63.0,16.0
2023-11-09,19.01,42.0,27.0,35.0,16.0
2023-11-10,29.69,75.0,27.0,45.0,16.0
2023-11-13,22.33,55.0,27.0,35.0,16.0
2023-11-15,26.04,60.0,27.0,45.0,16.0
2023-11-16,24.75,65.0,27.0,35.0,16.0
2023-11-17,30.49,70.0,27.0,53.0,16.0
2023-11-20,43.04,72.0,27.0,100.0,16.0
2023-11-21,43.29,72.0,27.0,100.0,16.0
2023-11-22,36.48,65.0,27.0,100.0,21.0
2023-11-23,36.6,60.0,27.0,95.0,19.0
2023-11-24,41.68,70.0,27.0,95.0,16.0
2023-11-28,40.45,65.0,27.0,95.0,16.0
2023-11-29,36.58,65.0,27.0,80.0,16.0
2023-11-30,35.23,60.0,27.0,80.0,16.0
2023-12-01,40.25,65.0,27.0,95.0,16.0
2023-12-04,32.25,60.0,27.0,80.0,19.0
2023-12-05,32.13,60.0,27.0,80.0,19.0
2023-12-06,44.94,80.0,27.0,100.0,16.0
2023-12-07,33.26,65.0,27.0,80.0,19.0
2023-12-08,20.31,60.0,27.0,35.0,19.0
2023-12-11,20.45,60.0,27.0,35.0,19.0
2023-12-12,21.09,60.0,27.0,38.0,19.0
2023-12-13,21.11,60.0,27.0,38.0,19.0
2023-12-14,21.27,60.0,27.0,38.0,19.0
2023-12-15,21.16,60.0,27.0,38.0,19.0
2023-12-18,42.92,72.0,27.0,100.0,16.0
2023-12-19,37.74,67.0,27.0,85.0,16.0
2023-12-20,35.93,70.0,27.0,78.0,16.0
2023-12-21,43.25,75.0,27.0,100.0,16.0
2023-12-22,33.38,60.0,27.0,88.0,19.0
2023-12-26,33.45,60.0,27.0,88.0,19.0
2023-12-27,30.09,60.0,27.0,63.0,16.0
2023-12-28,19.28,42.0,27.0,38.0,16.0
2023-12-29,29.85,70.0,27.0,63.0,19.0
2024-01-01,42.29,70.0,27.0,100.0,16.0
2024-01-02,46.04,85.0,27.0,100.0,16.0
2024-01-03,39.9,60.0,27.0,100.0,16.0
2024-01-04,40.04,60.0,27.0,100.0,16.0
2024-01-05,40.1,60.0,27.0,100.0,16.0
2024-01-08,42.48,70.0,27.0,100.0,16.0
2024-01-09,42.47,70.0,27.0,100.0,16.0
2024-01-10,36.95,60.0,27.0,100.0,19.0
2024-01-11,37.1,60.0,27.0,100.0,19.0
2024-01-12,40.2,60.0,27.0,100.0,16.0
2024-01-15,42.53,70.0,27.0,100.0,16.0
2024-01-16,36.84,60.0,27.0,88.0,16.0
2024-01-17,33.69,60.0,27.0,88.0,19.0
2024-01-18,35.22,65.0,27.0,88.0,19.0
2024-01-19,39.5,70.0,27.0,88.0,16.0
2024-01-23,22.47,42.0,27.0,70.0,21.0
2024-01-24,26.84,38.0,27.0,70.0,16.0
2024-01-25,37.6,52.0,27.0,98.0,16.0
2024-01-29,35.81,42.0,27.0,100.0,16.0
2024-01-30,45.16,80.0,27.0,100.0,16.0
2024-01-31,37.55,60.0,27.0,88.0,16.0
2024-02-01,28.25,42.0,27.0,70.0,16.0
2024-02-02,28.28,42.0,27.0,70.0,16.0
2024-02-05,27.8,42.0,27.0,70.0,16.0
2024-02-06,46.25,85.0,27.0,100.0,16.0
2024-02-07,43.25,72.0,27.0,100.0,16.0
2024-02-08,40.39,62.0,27.0,100.0,16.0
2024-02-09,35.86,65.0,27.0,100.0,21.0
2024-02-12,24.02,50.0,27.0,70.0,21.0
2024-02-13,23.74,42.0,27.0,70.0,19.0
2024-02-14,33.18,60.0,27.0,88.0,19.0
2024-02-15,38.23,70.0,27.0,98.0,19.0
2024-02-16,38.84,70.0,27.0,100.0,19.0
2024-02-19,33.55,60.0,27.0,88.0,19.0
2024-02-20,24.78,50.0,27.0,63.0,19.0
2024-02-21,22.66,42.0,27.0,63.0,19.0
2024-02-22,33.83,60.0,27.0,90.0,19.0
2024-02-23,22.54,42.0,27.0,63.0,19.0
2024-02-26,18.51,27.0,27.0,63.0,19.0
2024-02-27,12.73,23.0,27.0,45.0,19.0
2024-02-28,12.29,23.0,27.0,45.0,19.0
2024-02-29,13.66,28.0,27.0,45.0,19.0
2024-03-01,20.73,37.0,27.0,63.0,19.0
2024-03-04,39.57,65.0,27.0,98.0,16.0
2024-03-05,22.41,27.0,27.0,70.0,16.0
2024-03-06,15.86,27.0,27.0,45.0,16.0
2024-03-07,12.95,27.0,27.0,45.0,19.0
2024-03-11,5.16,23.0,27.0,20.0,19.0
2024-03-12,2.81,23.0,27.0,20.0,21.0
2024-03-13,0.0,4.0,27.0,0.0,29.0
2024-03-14,5.48,33.0,27.0,0.0,16.0
2024-03-15,0.82,28.0,27.0,0.0,19.0
2024-03-18,3.57,28.0,27.0,10.0,19.0
2024-03-19,0.0,8.0,27.0,0.0,24.0
2024-03-20,0.0,4.0,27.0,0.0,24.0
2024-03-21,7.96,43.0,27.0,0.0,16.0
2024-03-22,0.0,8.0,27.0,0.0,24.0
2024-03-26,0.0,8.0,27.0,10.0,27.0
2024-03-27,0.0,13.0,27.0,0.0,24.0
2024-03-28,0.0,8.0,27.0,0.0,24.0
2024-04-01,11.97,33.0,36.0,10.0,16.0
2024-04-02,13.21,37.0,36.0,10.0,16.0
2024-04-03,16.54,50.0,36.0,10.0,16.0
2024-04-04,29.28,75.0,36.0,35.0,16.0
2024-04-05,41.39,85.0,36.0,73.0,16.0
2024-04-08,26.17,55.0,36.0,63.0,21.0
2024-04-09,26.29,50.0,36.0,48.0,16.0
2024-04-10,22.11,50.0,36.0,43.0,19.0
2024-04-12,22.88,50.0,36.0,35.0,16.0
2024-04-15,27.61,55.0,36.0,50.0,16.0
2024-04-16,42.79,85.0,36.0,80.0,16.0
2024-04-18,46.52,85.0,36.0,95.0,16.0
2024-04-19,40.22,60.0,36.0,95.0,16.0
2024-04-22,42.14,65.0,36.0,95.0,16.0
2024-04-23,38.04,60.0,36.0,95.0,19.0
2024-04-24,41.16,60.0,36.0,95.0,16.0
2024-04-25,34.38,60.0,36.0,80.0,19.0
2024-04-26,39.61,65.0,36.0,95.0,19.0
2024-04-29,41.35,65.0,36.0,100.0,19.0
2024-04-30,43.21,65.0,36.0,95.0,16.0
2024-05-02,47.75,80.0,36.0,100.0,16.0
2024-05-03,38.12,60.0,36.0,95.0,19.0
2024-05-06,37.64,60.0,36.0,95.0,19.0
2024-05-07,37.38,60.0,36.0,95.0,19.0
2024-05-08,36.08,60.0,36.0,88.0,19.0
2024-05-09,30.37,60.0,36.0,88.0,24.0
2024-05-10,22.29,42.0,36.0,53.0,19.0
2024-05-13,21.96,42.0,36.0,53.0,19.0
2024-05-14,31.29,70.0,36.0,60.0,19.0
2024-05-15,28.8,60.0,36.0,60.0,19.0
2024-05-16,29.65,60.0,36.0,63.0,19.0
2024-05-17,29.77,65.0,36.0,45.0,16.0
2024-05-21,28.23,60.0,36.0,45.0,16.0
2024-05-22,25.02,60.0,36.0,45.0,19.0
2024-05-23,17.84,42.0,36.0,35.0,19.0
2024-05-24,17.84,42.0,36.0,35.0,19.0
2024-05-27,15.27,38.0,36.0,30.0,19.0
2024-05-28,12.51,38.0,36.0,20.0,19.0
2024-05-29,19.08,52.0,36.0,20.0,16.0
2024-05-30,15.27,38.0,36.0,20.0,16.0
2024-05-31,11.72,23.0,36.0,20.0,16.0
2024-06-03,13.17,28.0,36.0,20.0,16.0
2024-06-04,9.88,38.0,36.0,20.0,21.0
2024-06-05,10.8,28.0,36.0,10.0,16.0
2024-06-06,15.71,37.0,36.0,20.0,16.0
2024-06-07,20.16,52.0,36.0,20.0,16.0
2024-06-10,20.81,55.0,36.0,20.0,16.0
2024-06-11,20.76,35.0,36.0,38.0,16.0
2024-06-12,14.25,27.0,36.0,20.0,16.0
2024-06-13,11.92,27.0,36.0,20.0,19.0
2024-06-14,22.62,42.0,36.0,35.0,16.0
2024-06-18,23.93,37.0,36.0,45.0,16.0
2024-06-19,20.34,23.0,36.0,45.0,16.0
2024-06-20,22.84,33.0,36.0,45.0,16.0
2024-06-21,22.82,32.0,36.0,45.0,16.0
2024-06-24,24.0,37.0,36.0,45.0,16.0
2024-06-25,20.41,23.0,36.0,45.0,16.0
2024-06-26,25.0,42.0,36.0,45.0,16.0
2024-06-27,22.02,32.0,36.0,45.0,16.0
2024-06-28,23.55,37.0,36.0,45.0,16.0
2024-07-01,33.14,55.0,36.0,63.0,16.0
2024-07-02,40.87,85.0,36.0,63.0,16.0
2024-07-03,37.46,65.0,36.0,70.0,16.0
2024-07-04,26.78,35.0,36.0,70.0,19.0
2024-07-05,37.89,75.0,36.0,63.0,16.0
2024-07-08,30.24,70.0,36.0,38.0,16.0
2024-07-09,29.41,65.0,36.0,38.0,16.0
2024-07-10,25.18,50.0,36.0,38.0,16.0
2024-07-11,18.75,35.0,36.0,38.0,19.0
2024-07-12,30.13,70.0,36.0,38.0,16.0
2024-07-15,24.7,60.0,36.0,38.0,19.0
2024-07-16,14.59,27.0,36.0,18.0,16.0
2024-07-18,22.65,60.0,36.0,18.0,16.0
2024-07-19,13.58,27.0,36.0,18.0,16.0
2024-07-22,10.86,27.0,36.0,18.0,19.0
2024-07-23,11.59,28.0,36.0,8.0,16.0
2024-07-24,33.5,85.0,36.0,35.0,16.0
2024-07-25,32.16,80.0,36.0,35.0,16.0
2024-07-26,25.52,60.0,36.0,28.0,16.0
2024-07-29,20.16,60.0,36.0,18.0,19.0
2024-07-30,21.57,65.0,36.0,18.0,19.0
2024-07-31,21.24,60.0,36.0,10.0,16.0
2024-08-01,16.25,42.0,36.0,10.0,16.0
2024-08-02,24.02,65.0,36.0,18.0,16.0
2024-08-05,11.88,28.0,36.0,10.0,16.0
2024-08-06,7.44,23.0,36.0,10.0,19.0
2024-08-07,21.07,62.0,36.0,10.0,16.0
2024-08-08,9.32,27.0,36.0,10.0,19.0
2024-08-09,36.67,85.0,36.0,48.0,16.0
2024-08-12,24.09,65.0,36.0,18.0,16.0
2024-08-13,10.47,42.0,36.0,0.0,19.0
2024-08-14,6.29,27.0,36.0,0.0,19.0
2024-08-16,7.93,32.0,36.0,0.0,19.0
2024-08-19,38.74,85.0,36.0,55.0,16.0
2024-08-20,38.89,85.0,36.0,55.0,16.0
2024-08-21,36.48,75.0,36.0,55.0,16.0
2024-08-22,25.35,60.0,36.0,38.0,19.0
2024-08-23,28.19,60.0,36.0,38.0,16.0
2024-08-26,28.9,65.0,36.0,48.0,19.0
2024-08-27,25.64,50.0,36.0,38.0,16.0
2024-08-28,16.12,42.0,36.0,20.0,19.0
2024-08-29,16.01,42.0,36.0,20.0,19.0
2024-08-30,26.55,52.0,36.0,38.0,16.0
2024-09-02,33.27,80.0,36.0,38.0,16.0
2024-09-03,36.58,65.0,36.0,65.0,16.0
2024-09-04,32.38,60.0,36.0,65.0,19.0
2024-09-05,25.47,60.0,36.0,38.0,19.0
2024-09-06,30.61,60.0,36.0,48.0,16.0
2024-09-09,20.31,60.0,36.0,20.0,19.0
2024-09-10,26.53,65.0,36.0,38.0,19.0
2024-09-11,28.73,65.0,36.0,48.0,19.0
2024-09-12,20.34,42.0,36.0,38.0,19.0
2024-09-13,31.79,65.0,36.0,48.0,16.0
2024-09-16,24.42,60.0,36.0,35.0,19.0
2024-09-17,27.0,60.0,36.0,45.0,19.0
2024-09-18,21.56,27.0,36.0,45.0,16.0
2024-09-19,13.84,23.0,36.0,20.0,16.0
2024-09-20,23.9,37.0,36.0,45.0,16.0
2024-09-23,18.43,27.0,36.0,45.0,19.0
2024-09-24,17.31,23.0,36.0,45.0,19.0
2024-09-25,16.59,33.0,36.0,20.0,16.0
2024-09-26,15.13,28.0,36.0,20.0,16.0
2024-09-27,11.31,23.0,36.0,20.0,19.0
2024-09-30,19.26,28.0,36.0,35.0,16.0
2024-10-01,24.27,47.0,36.0,35.0,16.0
2024-10-03,11.42,23.0,36.0,10.0,16.0
2024-10-04,0.0,8.0,36.0,10.0,24.0
2024-10-07,0.0,8.0,36.0,10.0,24.0
2024-10-08,0.0,18.0,36.0,0.0,24.0
2024-10-09,13.53,42.0,36.0,0.0,16.0
2024-10-10,13.55,32.0,36.0,10.0,16.0
2024-10-11,0.0,8.0,36.0,10.0,27.0
2024-10-14,0.0,8.0,36.0,10.0,24.0
2024-10-15,0.0,8.0,36.0,10.0,27.0
2024-10-16,0.0,8.0,36.0,10.0,24.0
2024-10-17,0.0,8.0,36.0,0.0,24.0
2024-10-18,0.0,13.0,36.0,0.0,27.0
2024-10-21,0.0,8.0,36.0,0.0,27.0
2024-10-22,0.0,8.0,36.0,0.0,27.0
2024-10-23,0.0,14.0,36.0,0.0,24.0
2024-10-24,0.0,13.0,36.0,0.0,24.0
2024-10-25,0.0,8.0,36.0,0.0,24.0
2024-10-28,0.0,4.0,36.0,0.0,24.0
2024-10-29,0.0,4.0,36.0,0.0,24.0
2024-10-30,0.0,18.0,36.0,0.0,24.0
2024-10-31,0.0,13.0,36.0,0.0,24.0
2024-11-01,0.0,22.0,36.0,0.0,27.0
2024-11-04,9.0,40.0,36.0,18.0,24.0
2024-11-05,3.98,30.0,36.0,8.0,24.0
2024-11-06,0.91,25.0,36.0,0.0,24.0
2024-11-07,0.0,20.0,36.0,0.0,27.0
2024-11-08,0.0,12.0,36.0,0.0,24.0
2024-11-11,0.0,25.0,36.0,0.0,27.0
2024-11-12,0.0,8.0,36.0,0.0,24.0
2024-11-13,0.0,8.0,36.0,0.0,29.0
2024-11-14,0.0,18.0,36.0,0.0,27.0
2024-11-18,0.0,8.0,36.0,0.0,24.0
2024-11-19,0.0,18.0,36.0,0.0,24.0
2024-11-21,0.0,8.0,36.0,0.0,24.0
2024-11-22,0.0,18.0,36.0,0.0,27.0
2024-11-25,0.0,23.0,36.0,0.0,24.0
2024-11-26,0.0,8.0,36.0,0.0,24.0
2024-11-27,0.0,13.0,36.0,8.0,27.0
2024-11-28,5.86,27.0,36.0,18.0,24.0
2024-11-29,0.0,17.0,36.0,8.0,27.0
2024-12-02,11.63,60.0,36.0,8.0,24.0
2024-12-03,8.04,45.0,36.0,8.0,24.0
2024-12-04,9.88,50.0,36.0,10.0,24.0
2024-12-05,7.07,40.0,36.0,10.0,24.0
2024-12-06,4.83,40.0,36.0,0.0,24.0
2024-12-09,11.82,60.0,36.0,8.0,24.0
2024-12-10,5.89,35.0,36.0,8.0,24.0
2024-12-11,5.84,35.0,36.0,8.0,24.0
2024-12-12,6.78,40.0,36.0,8.0,24.0
2024-12-13,9.8,35.0,36.0,25.0,24.0
2024-12-16,14.85,55.0,36.0,25.0,24.0
2024-12-17,9.7,35.0,36.0,25.0,24.0
2024-12-18,7.3,27.0,36.0,25.0,24.0
2024-12-19,12.0,45.0,36.0,25.0,24.0
2024-12-20,10.34,40.0,36.0,25.0,24.0
2024-12-23,0.26,8.0,36.0,18.0,24.0
2024-12-24,0.51,8.0,36.0,18.0,24.0
2024-12-26,0.0,8.0,36.0,8.0,27.0
2024-12-27,0.0,13.0,36.0,8.0,27.0
2024-12-30,0.0,8.0,36.0,0.0,27.0
2024-12-31,0.0,22.0,36.0,0.0,27.0
2025-01-01,0.0,17.0,36.0,0.0,24.0
2025-01-02,0.42,40.0,36.0,0.0,27.0
2025-01-03,0.12,27.0,36.0,0.0,24.0
2025-01-06,0.0,8.0,36.0,0.0,24.0
2025-01-07,0.0,22.0,36.0,0.0,24.0
2025-01-08,0.0,12.0,36.0,0.0,24.0
2025-01-09,0.0,17.0,36.0,0.0,24.0
2025-01-10,0.0,18.0,36.0,0.0,24.0
2025-01-13,0.0,23.0,36.0,0.0,24.0
2025-01-14,0.0,13.0,36.0,0.0,24.0
2025-01-15,0.0,18.0,36.0,0.0,24.0
2025-01-16,0.0,13.0,36.0,0.0,24.0
2025-01-17,0.0,13.0,36.0,0.0,24.0
2025-01-20,0.0,13.0,36.0,0.0,27.0
2025-01-21,0.0,8.0,36.0,0.0,24.0
2025-01-22,0.0,13.0,36.0,0.0,27.0
2025-01-23,0.0,23.0,36.0,0.0,24.0
2025-01-24,0.0,19.0,36.0,0.0,29.0
2025-01-27,0.0,19.0,36.0,0.0,32.0
2025-01-28,0.0,23.0,36.0,0.0,24.0
2025-01-29,0.0,23.0,36.0,0.0,24.0
2025-01-30,6.79,60.0,36.0,0.0,24.0
2025-01-31,14.07,60.0,36.0,28.0,24.0
2025-02-01,33.04,75.0,36.0,55.0,16.0
2025-02-03,12.8,35.0,36.0,48.0,24.0
2025-02-04,19.65,55.0,36.0,35.0,19.0
2025-02-05,5.06,35.0,36.0,28.0,27.0
2025-02-06,30.4,70.0,36.0,50.0,16.0
2025-02-07,9.98,35.0,36.0,35.0,24.0
2025-02-10,6.57,35.0,36.0,35.0,27.0
2025-02-11,35.99,75.0,36.0,70.0,16.0
2025-02-12,44.94,85.0,36.0,95.0,16.0
2025-02-13,36.44,67.0,36.0,80.0,16.0
2025-02-14,29.42,60.0,36.0,60.0,16.0
2025-02-17,30.59,65.0,36.0,60.0,16.0
2025-02-18,33.49,57.0,36.0,80.0,16.0
2025-02-19,41.37,72.0,36.0,95.0,16.0
2025-02-20,41.51,72.0,36.0,95.0,16.0
2025-02-21,42.38,72.0,36.0,100.0,16.0
2025-02-24,42.39,72.0,36.0,100.0,16.0
2025-02-25,28.13,47.0,36.0,100.0,24.0
2025-02-27,28.01,47.0,36.0,100.0,24.0
2025-02-28,31.21,60.0,36.0,100.0,24.0
2025-03-03,28.74,50.0,36.0,100.0,24.0
2025-03-04,27.56,50.0,36.0,95.0,24.0
2025-03-05,27.88,50.0,36.0,95.0,24.0
2025-03-06,27.9,50.0,36.0,95.0,24.0
2025-03-07,38.38,60.0,36.0,95.0,16.0
2025-03-10,25.56,42.0,36.0,95.0,24.0
2025-03-11,25.51,42.0,36.0,95.0,24.0
2025-03-12,33.62,42.0,36.0,95.0,16.0
2025-03-13,36.08,52.0,36.0,95.0,16.0
2025-03-17,28.93,42.0,36.0,88.0,19.0
2025-03-18,28.62,42.0,36.0,88.0,19.0
2025-03-19,36.08,60.0,36.0,95.0,19.0
2025-03-20,37.22,60.0,36.0,100.0,19.0
2025-03-21,37.53,60.0,36.0,100.0,19.0
2025-03-24,36.93,60.0,36.0,98.0,19.0
2025-03-25,36.47,70.0,36.0,88.0,19.0
2025-03-26,34.84,70.0,36.0,70.0,16.0
2025-03-27,30.86,65.0,36.0,70.0,19.0
2025-03-28,35.33,65.0,36.0,88.0,19.0
2025-04-01,37.1,52.0,44.0,88.0,18.0
2025-04-02,40.17,52.0,44.0,100.0,18.0
2025-04-03,40.29,52.0,44.0,100.0,18.0
2025-04-04,39.53,52.0,44.0,100.0,18.0
2025-04-07,44.68,62.0,44.0,100.0,15.0
2025-04-08,39.62,52.0,44.0,100.0,18.0
2025-04-09,42.45,52.0,44.0,100.0,15.0
2025-04-11,40.17,52.0,44.0,100.0,18.0
2025-04-15,43.64,52.0,44.0,100.0,15.0
2025-04-16,43.58,52.0,44.0,100.0,15.0
2025-04-17,40.69,52.0,44.0,100.0,18.0
2025-04-21,46.54,62.0,44.0,100.0,15.0
2025-04-22,46.51,62.0,44.0,100.0,15.0
2025-04-23,42.75,60.0,44.0,100.0,18.0
2025-04-24,49.72,75.0,44.0,100.0,15.0
2025-04-25,45.23,60.0,44.0,100.0,15.0
2025-04-28,49.14,75.0,44.0,100.0,15.0
2025-04-29,42.51,60.0,44.0,100.0,18.0
2025-04-30,34.61,42.0,44.0,88.0,18.0
2025-05-02,34.62,42.0,44.0,88.0,18.0
2025-05-05,30.99,53.0,44.0,70.0,20.0
2025-05-06,27.86,23.0,44.0,70.0,15.0
2025-05-07,32.94,43.0,44.0,70.0,15.0
2025-05-08,35.16,53.0,44.0,70.0,15.0
2025-05-09,37.01,60.0,44.0,70.0,15.0
2025-05-12,40.75,70.0,44.0,70.0,15.0
2025-05-13,37.69,70.0,44.0,70.0,18.0
2025-05-14,43.36,80.0,44.0,70.0,15.0
2025-05-15,35.32,60.0,44.0,70.0,18.0
2025-05-16,39.82,65.0,44.0,70.0,15.0
2025-05-19,36.03,60.0,44.0,70.0,18.0
2025-05-20,36.84,65.0,44.0,70.0,18.0
2025-05-21,36.81,65.0,44.0,70.0,18.0
2025-05-22,41.44,65.0,44.0,88.0,18.0
2025-05-23,43.93,65.0,44.0,98.0,18.0
2025-05-26,41.35,52.0,44.0,100.0,18.0
2025-05-27,41.23,52.0,44.0,100.0,18.0
2025-05-28,41.32,52.0,44.0,100.0,18.0
2025-05-29,41.31,52.0,44.0,100.0,18.0
2025-05-30,41.87,62.0,44.0,80.0,15.0
2025-06-02,46.48,60.0,44.0,100.0,15.0
2025-06-03,43.59,60.0,44.0,100.0,18.0
2025-06-04,43.71,60.0,44.0,100.0,18.0
2025-06-05,44.02,60.0,44.0,100.0,18.0
2025-06-06,39.4,42.0,44.0,100.0,18.0
2025-06-09,50.58,75.0,44.0,100.0,15.0
2025-06-10,36.18,42.0,44.0,88.0,18.0
2025-06-11,36.39,42.0,44.0,88.0,18.0
2025-06-12,36.63,33.0,44.0,88.0,15.0
2025-06-13,26.43,23.0,44.0,70.0,18.0
2025-06-16,26.32,23.0,44.0,70.0,18.0
2025-06-17,29.19,23.0,44.0,70.0,15.0
2025-06-18,32.86,38.0,44.0,70.0,15.0
2025-06-19,29.8,28.0,44.0,70.0,15.0
2025-06-20,31.44,34.0,44.0,70.0,15.0
2025-06-23,21.16,19.0,44.0,45.0,15.0
2025-06-24,26.62,39.0,44.0,45.0,15.0
2025-06-25,25.73,34.0,44.0,45.0,15.0
2025-06-26,18.85,19.0,44.0,45.0,18.0
2025-06-27,25.65,33.0,44.0,45.0,15.0
2025-06-30,12.15,37.0,12.0,45.0,17.0
2025-07-01,13.23,42.0,12.0,45.0,17.0
2025-07-02,10.84,33.0,12.0,45.0,17.0
2025-07-03,5.76,23.0,12.0,35.0,17.0
2025-07-04,2.66,23.0,12.0,35.0,20.0
2025-07-07,4.01,28.0,12.0,35.0,20.0
2025-07-08,2.84,23.0,12.0,35.0,20.0
2025-07-09,2.79,23.0,12.0,35.0,20.0
2025-07-10,2.78,23.0,12.0,35.0,20.0
2025-07-11,3.85,28.0,12.0,35.0,20.0
2025-07-14,2.55,23.0,12.0,35.0,20.0
2025-07-15,4.28,28.0,12.0,35.0,20.0
2025-07-16,6.68,37.0,12.0,35.0,20.0
2025-07-17,16.18,55.0,12.0,43.0,17.0
2025-07-18,21.4,60.0,12.0,60.0,17.0
2025-07-21,18.8,50.0,12.0,60.0,17.0
2025-07-22,11.91,35.0,12.0,60.0,20.0
2025-07-23,10.2,35.0,12.0,53.0,20.0
2025-07-24,8.0,27.0,12.0,53.0,20.0
2025-07-25,5.17,27.0,12.0,43.0,20.0
2025-07-28,1.97,23.0,12.0,35.0,20.0
2025-07-29,7.7,32.0,12.0,35.0,17.0
2025-07-30,5.81,27.0,12.0,45.0,20.0
2025-07-31,14.0,32.0,12.0,73.0,20.0
2025-08-01,13.91,32.0,12.0,73.0,20.0
2025-08-04,15.96,40.0,12.0,73.0,20.0
2025-08-05,15.83,40.0,12.0,73.0,20.0
2025-08-06,9.17,35.0,12.0,53.0,20.0
2025-08-07,7.1,27.0,12.0,53.0,20.0
2025-08-08,7.0,27.0,12.0,53.0,20.0
2025-08-11,7.09,27.0,12.0,53.0,20.0
2025-08-12,3.74,23.0,12.0,43.0,20.0
2025-08-13,1.6,23.0,12.0,35.0,20.0
2025-08-14,1.51,23.0,12.0,35.0,20.0
2025-08-18,1.9,23.0,12.0,35.0,20.0
2025-08-19,10.04,43.0,12.0,35.0,17.0
2025-08-20,6.65,28.0,12.0,35.0,17.0
2025-08-21,8.67,37.0,12.0,35.0,17.0
2025-08-22,6.3,40.0,12.0,35.0,20.0
2025-08-25,13.0,55.0,12.0,35.0,17.0
2025-08-26,3.33,42.0,12.0,10.0,17.0
2025-08-28,0.0,23.0,12.0,10.0,17.0
2025-08-29,0.0,38.0,12.0,0.0,17.0
2025-09-01,1.11,43.0,12.0,0.0,17.0
2025-09-02,0.0,28.0,12.0,0.0,17.0
2025-09-03,0.47,38.0,12.0,0.0,17.0
2025-09-04,1.72,33.0,12.0,10.0,17.0
2025-09-05,0.28,28.0,12.0,10.0,17.0
2025-09-08,0.0,33.0,12.0,10.0,20.0
2025-09-09,1.24,33.0,12.0,10.0,17.0
2025-09-10,0.3,28.0,12.0,10.0,17.0
2025-09-11,0.39,28.0,12.0,10.0,17.0
2025-09-12,5.03,32.0,12.0,25.0,17.0
2025-09-15,23.17,75.0,12.0,53.0,17.0
2025-09-16,28.7,70.0,12.0,80.0,17.0
2025-09-17,12.05,60.0,12.0,43.0,22.0
2025-09-18,27.04,70.0,12.0,73.0,17.0
2025-09-19,23.19,55.0,12.0,73.0,17.0
2025-09-22,13.68,50.0,12.0,53.0,20.0
2025-09-23,11.94,65.0,12.0,20.0,17.0
2025-09-24,0.0,27.0,12.0,20.0,20.0
2025-09-25,0.0,27.0,12.0,18.0,20.0
2025-09-26,0.0,27.0,12.0,8.0,20.0
2025-09-29,0.0,23.0,12.0,0.0,20.0
2025-09-30,6.1,28.0,27.0,8.0,16.0
2025-10-01,5.09,23.0,27.0,8.0,16.0
2025-10-03,24.39,60.0,27.0,35.0,13.0
2025-10-06,17.05,50.0,27.0,28.0,16.0
2025-10-07,16.94,50.0,27.0,28.0,16.0
2025-10-08,8.87,27.0,27.0,18.0,16.0
2025-10-09,9.91,32.0,27.0,18.0,16.0
2025-10-10,6.32,27.0,27.0,8.0,16.0
2025-10-13,0.0,8.0,27.0,0.0,24.0
2025-10-14,0.0,13.0,27.0,0.0,21.0
2025-10-15,0.0,8.0,27.0,0.0,21.0
2025-10-16,12.0,47.0,27.0,0.0,13.0
2025-10-17,0.0,8.0,27.0,0.0,21.0
2025-10-20,0.0,13.0,27.0,0.0,24.0
2025-10-21,0.0,8.0,27.0,0.0,24.0
2025-10-23,0.0,13.0,27.0,0.0,24.0
2025-10-24,0.0,13.0,27.0,0.0,21.0
2025-10-27,0.0,8.0,27.0,0.0,21.0
2025-10-28,0.0,13.0,27.0,0.0,21.0
2025-10-29,0.0,8.0,27.0,0.0,24.0
2025-10-30,0.0,13.0,27.0,0.0,21.0
2025-10-31,0.0,8.0,27.0,0.0,24.0
2025-11-03,0.0,13.0,27.0,0.0,24.0
2025-11-04,0.0,8.0,27.0,0.0,21.0
2025-11-06,0.0,13.0,27.0,0.0,21.0
2025-11-07,0.0,8.0,27.0,0.0,21.0
2025-11-10,0.0,18.0,27.0,0.0,21.0
2025-11-11,0.0,8.0,27.0,0.0,24.0
2025-11-12,0.0,8.0,27.0,0.0,24.0
2025-11-13,0.0,28.0,27.0,0.0,21.0
2025-11-14,0.0,17.0,27.0,0.0,21.0
2025-11-17,0.22,30.0,27.0,0.0,21.0
2025-11-18,0.0,22.0,27.0,8.0,21.0
2025-11-19,2.37,40.0,27.0,0.0,21.0
2025-11-20,0.0,27.0,27.0,0.0,21.0
2025-11-21,0.0,23.0,27.0,0.0,21.0
2025-11-24,0.0,8.0,27.0,0.0,21.0
2025-11-25,0.0,28.0,27.0,0.0,21.0
2025-11-26,0.0,28.0,27.0,0.0,21.0
2025-11-27,3.01,35.0,27.0,8.0,21.0
2025-11-28,0.0,25.0,27.0,8.0,24.0
2025-12-01,0.0,20.0,27.0,8.0,24.0
2025-12-02,0.0,20.0,27.0,8.0,21.0
2025-12-03,0.21,25.0,27.0,8.0,21.0
2025-12-04,1.54,20.0,27.0,18.0,21.0
2025-12-05,6.29,40.0,27.0,18.0,21.0
2025-12-08,0.0,20.0,27.0,8.0,21.0
2025-12-09,9.04,50.0,27.0,18.0,21.0
2025-12-10,10.17,45.0,27.0,28.0,21.0
2025-12-11,5.94,40.0,27.0,28.0,24.0
2025-12-12,9.0,40.0,27.0,28.0,21.0
2025-12-15,6.35,50.0,27.0,8.0,21.0
2025-12-16,0.0,35.0,27.0,8.0,24.0
2025-12-17,0.0,35.0,27.0,8.0,24.0
2025-12-18,0.0,27.0,27.0,8.0,24.0
2025-12-19,3.57,40.0,27.0,18.0,24.0
2025-12-22,8.53,40.0,27.0,25.0,21.0
2025-12-23,5.39,35.0,27.0,18.0,21.0
2025-12-24,6.47,40.0,27.0,18.0,21.0
2025-12-26,5.23,45.0,27.0,8.0,21.0
2025-12-29,12.7,55.0,27.0,28.0,21.0
2025-12-30,4.81,35.0,27.0,28.0,24.0
2025-12-31,11.37,60.0,12.0,35.0,20.0
2026-01-01,0.65,35.0,12.0,18.0,20.0
2026-01-02,0.0,40.0,12.0,8.0,23.0
2026-01-05,0.0,35.0,12.0,8.0,23.0
2026-01-06,0.0,35.0,12.0,8.0,23.0
2026-01-07,0.0,27.0,12.0,8.0,23.0
2026-01-08,0.0,27.0,12.0,0.0,20.0
2026-01-09,0.0,32.0,12.0,0.0,20.0
2026-01-12,0.0,27.0,12.0,10.0,23.0
2026-01-13,0.0,27.0,12.0,10.0,20.0
2026-01-14,0.0,37.0,12.0,10.0,20.0
2026-01-15,0.0,37.0,12.0,10.0,20.0
2026-01-16,0.0,32.0,12.0,8.0,23.0
2026-01-19,22.91,62.0,12.0,50.0,12.0
2026-01-20,0.0,42.0,12.0,10.0,25.0
2026-01-21,0.0,27.0,12.0,10.0,20.0
2026-01-22,0.0,32.0,12.0,10.0,23.0
2026-01-23,0.0,27.0,12.0,10.0,23.0
2026-01-27,0.0,32.0,12.0,10.0,20.0
2026-01-28,0.0,32.0,12.0,10.0,23.0
2026-01-29,1.92,50.0,12.0,10.0,20.0
2026-01-30,0.0,27.0,12.0,10.0,20.0
2026-02-02,0.0,12.0,12.0,10.0,20.0
2026-02-03,0.0,17.0,12.0,10.0,20.0
2026-02-04,0.0,32.0,12.0,10.0,20.0
2026-02-05,0.0,12.0,12.0,10.0,20.0
2026-02-06,0.0,17.0,12.0,10.0,23.0
2026-02-09,0.67,45.0,12.0,18.0,23.0
2026-02-10,0.0,35.0,12.0,18.0,23.0
2026-02-11,0.0,12.0,12.0,18.0,20.0
2026-02-12,0.0,40.0,12.0,18.0,23.0
2026-02-13,0.0,12.0,12.0,18.0,20.0
2026-02-16,3.28,45.0,12.0,18.0,20.0
2026-02-17,0.0,35.0,12.0,10.0,20.0
2026-02-18,6.03,35.0,12.0,38.0,20.0
2026-02-19,0.0,12.0,12.0,18.0,20.0
2026-02-20,5.69,55.0,12.0,18.0,20.0
2026-02-23,10.85,60.0,12.0,33.0,20.0
2026-02-24,28.36,62.0,12.0,70.0,12.0
2026-02-25,30.93,62.0,12.0,80.0,12.0
2026-02-26,36.08,67.0,12.0,95.0,12.0
2026-02-27,24.28,65.0,12.0,70.0,17.0
2026-03-02,18.41,50.0,12.0,63.0,17.0
2026-03-04,24.86,60.0,12.0,70.0,15.0
2026-03-05,23.7,55.0,12.0,70.0,15.0
2026-03-06,34.01,70.0,12.0,85.0,12.0
2026-03-09,25.97,50.0,12.0,85.0,15.0
2026-03-10,41.87,85.0,12.0,100.0,12.0
2026-03-11,40.46,80.0,12.0,100.0,12.0
2026-03-12,27.88,65.0,12.0,85.0,17.0
2026-03-13,30.11,55.0,12.0,85.0,12.0
2026-03-16,28.81,50.0,12.0,85.0,12.0
2026-03-17,26.01,50.0,12.0,85.0,15.0
2026-03-18,20.62,42.0,12.0,70.0,15.0
2026-03-19,13.39,42.0,12.0,43.0,15.0
2026-03-20,18.89,42.0,12.0,63.0,15.0
2026-03-23,0.0,18.0,12.0,25.0,25.0
2026-03-24,0.7,18.0,12.0,35.0,20.0
2026-03-25,0.0,8.0,12.0,25.0,23.0
2026-03-27,0.0,8.0,12.0,15.0,23.0
2026-03-30,0.0,8.0,12.0,15.0,20.0
2026-04-01,0.0,13.0,37.0,0.0,32.0
2026-04-02,0.0,8.0,37.0,0.0,35.0
2026-04-06,0.0,13.0,37.0,0.0,35.0
2026-04-07,0.0,8.0,37.0,0.0,35.0
2026-04-08,0.0,13.0,37.0,0.0,32.0
2026-04-09,0.0,13.0,37.0,0.0,35.0
2026-04-10,21.43,70.0,37.0,35.0,24.0
2026-04-13,17.18,55.0,37.0,35.0,24.0
2026-04-15,19.08,60.0,37.0,35.0,24.0
2026-04-16,14.79,55.0,37.0,35.0,27.0
2026-04-17,27.92,60.0,37.0,68.0,24.0
2026-04-20,11.78,50.0,37.0,35.0,29.0
2026-04-21,13.93,50.0,37.0,35.0,27.0
2026-04-22,19.19,55.0,37.0,50.0,27.0
2026-04-23,2.1,27.0,37.0,10.0,27.0
2026-04-24,16.46,27.0,37.0,68.0,27.0
2026-04-27,9.31,27.0,37.0,38.0,27.0
2026-04-28,0.0,8.0,37.0,38.0,35.0
2026-04-29,10.44,32.0,37.0,38.0,27.0
2026-04-30,14.34,32.0,37.0,53.0,27.0
2026-05-01,14.02,32.0,37.0,53.0,27.0
2026-05-04,9.25,27.0,37.0,38.0,27.0
2026-05-05,19.86,42.0,37.0,53.0,24.0
2026-05-06,13.06,27.0,37.0,53.0,27.0
2026-05-07,10.56,32.0,37.0,38.0,27.0
2026-05-08,22.24,37.0,37.0,68.0,24.0
2026-05-11,16.45,27.0,37.0,68.0,27.0
2026-05-12,0.0,8.0,37.0,35.0,32.0
2026-05-13,0.0,8.0,37.0,10.0,32.0
2026-05-14,0.0,13.0,37.0,25.0,35.0
2026-05-15,0.0,23.0,37.0,0.0,37.0
2026-05-18,0.0,28.0,37.0,10.0,32.0
2026-05-19,0.0,8.0,37.0,10.0,32.0
2026-05-20,0.0,8.0,37.0,10.0,35.0
2026-05-21,0.0,8.0,37.0,10.0,32.0
2026-05-22,0.0,8.0,37.0,0.0,32.0
2026-05-25,0.0,8.0,37.0,0.0,32.0
2026-05-26,0.0,13.0,37.0,0.0,35.0
2026-05-27,0.0,28.0,37.0,0.0,32.0
2026-05-28,0.0,8.0,37.0,10.0,35.0
2026-05-29,0.0,8.0,37.0,10.0,32.0
2026-06-01,0.0,8.0,37.0,10.0,35.0
2026-06-02,0.0,13.0,37.0,10.0,32.0
2026-06-03,0.0,8.0,37.0,0.0,32.0
2026-06-04,0.0,13.0,37.0,0.0,32.0
2026-06-05,0.0,13.0,37.0,0.0,32.0
2026-06-08,0.0,17.0,37.0,10.0,32.0
2026-06-09,0.0,8.0,37.0,0.0,32.0
2026-06-10,0.0,17.0,37.0,0.0,32.0
2026-06-11,0.0,8.0,37.0,0.0,32.0
2026-06-12,0.0,23.0,37.0,8.0,32.0
2026-06-15,0.0,22.0,37.0,0.0,35.0
2026-06-16,0.0,12.0,37.0,0.0,35.0
2026-06-17,0.0,17.0,37.0,8.0,32.0
2026-06-18,0.0,22.0,37.0,8.0,32.0
2026-06-19,0.0,23.0,37.0,8.0,32.0
2026-06-22,0.0,8.0,37.0,8.0,32.0
2026-06-23,0.0,17.0,37.0,8.0,32.0
2026-06-24,0.0,8.0,37.0,0.0,32.0
2026-06-25,0.0,8.0,37.0,0.0,32.0
2026-06-26,0.0,8.0,37.0,0.0,35.0
2026-06-29,0.0,8.0,37.0,0.0,35.0
2026-06-30,0.0,17.0,37.0,0.0,32.0
2026-07-01,0.0,8.0,37.0,0.0,35.0
2026-07-02,0.0,18.0,37.0,0.0,32.0
2026-07-03,0.0,13.0,37.0,0.0,32.0
2026-07-06,0.0,8.0,37.0,0.0,35.0
2026-07-07,0.0,8.0,37.0,0.0,35.0
2026-07-08,0.0,8.0,37.0,0.0,32.0
2026-07-09,0.0,27.0,37.0,8.0,32.0
2026-07-10,0.0,17.0,37.0,8.0,35.0
2026-07-13,0.0,12.0,37.0,0.0,32.0
2026-07-14,0.0,17.0,37.0,0.0,35.0
2026-07-15,0.0,27.0,37.0,0.0,32.0
2026-07-16,0.0,13.0,37.0,0.0,32.0
2026-07-17,0.0,17.0,37.0,0.0,35.0
2026-07-20,0.0,17.0,37.0,0.0,35.0
2026-07-21,0.0,17.0,37.0,0.0,32.0
2026-07-22,0.0,23.0,37.0,0.0,32.0
2026-07-23,0.0,28.0,37.0,0.0,32.0
2026-07-24,0.0,27.0,37.0,0.0,32.0
2026-07-27,0.0,8.0,37.0,0.0,32.0
2026-07-28,0.0,17.0,37.0,0.0,35.0
2026-07-29,0.0,12.0,37.0,0.0,35.0
2026-07-30,0.0,17.0,37.0,8.0,35.0
2026-07-31,0.0,18.0,37.0,0.0,32.0
2026-08-03,19.75,75.0,37.0,28.0,24.0
2026-08-04,23.09,62.0,37.0,55.0,24.0
2026-08-05,21.93,57.0,37.0,55.0,24.0
2026-08-06,20.7,52.0,37.0,55.0,24.0
2026-08-07,13.99,37.0,37.0,55.0,27.0
2026-08-10,25.83,57.0,37.0,70.0,24.0
2026-08-11,20.67,37.0,37.0,70.0,24.0
2026-08-12,15.39,42.0,37.0,55.0,27.0
2026-08-13,20.49,50.0,37.0,55.0,24.0
2026-08-14,15.9,50.0,37.0,48.0,27.0
2026-08-17,20.42,60.0,37.0,55.0,27.0
2026-08-18,24.12,60.0,37.0,70.0,27.0
2026-08-19,21.69,50.0,37.0,70.0,27.0
2026-08-20,18.16,50.0,37.0,55.0,27.0
2026-08-21,19.47,55.0,37.0,55.0,27.0
2026-08-24,19.72,55.0,37.0,55.0,27.0
2026-08-25,18.42,50.0,37.0,55.0,27.0
2026-08-26,14.68,55.0,37.0,35.0,27.0
2026-08-27,18.69,60.0,37.0,35.0,24.0
2026-08-28,13.3,50.0,37.0,35.0,27.0
2026-08-31,6.93,42.0,37.0,18.0,27.0
2026-09-01,14.28,42.0,2.0,18.0,7.0
2026-09-03,16.18,75.0,4.0,10.0,12.0
2026-09-04,8.0,55.0,4.0,10.0,15.0
